#position (cm), frequency (Hz),  Volume * B^2  (T^2 cm^3)
0.341094 1.7815e+10 2.75685e-05
0.341271 1.78058e+10 2.95658e-05
0.341448 1.77967e+10 3.16246e-05
0.341625 1.77875e+10 3.37772e-05
0.341802 1.77784e+10 3.59888e-05
0.341979 1.77692e+10 3.82962e-05
0.342156 1.77601e+10 4.06596e-05
0.342333 1.7751e+10 4.31205e-05
0.34251 1.77419e+10 4.56339e-05
0.342687 1.77328e+10 4.82461e-05
0.342864 1.77237e+10 5.09066e-05
0.343041 1.77147e+10 5.36671e-05
0.343218 1.77056e+10 5.64712e-05
0.343395 1.76965e+10 5.9376e-05
0.343572 1.76875e+10 6.23191e-05
0.34375 1.76785e+10 6.53636e-05
0.343927 1.76694e+10 6.84404e-05
0.344104 1.76604e+10 7.16189e-05
0.344281 1.76514e+10 7.48233e-05
0.344458 1.76424e+10 7.81294e-05
0.344635 1.76334e+10 8.14544e-05
0.344812 1.76244e+10 8.48808e-05
0.344989 1.76155e+10 8.83187e-05
0.345166 1.76065e+10 9.18575e-05
0.345343 1.75975e+10 9.53997e-05
0.34552 1.75886e+10 9.90421e-05
0.345697 1.75797e+10 0.000102679
0.345874 1.75707e+10 0.000106416
0.346051 1.75618e+10 0.000110139
0.346228 1.75529e+10 0.000113959
0.346405 1.7544e+10 0.000117757
0.346583 1.75351e+10 0.000121651
0.34676 1.75262e+10 0.000125512
0.346937 1.75174e+10 0.000129468
0.347114 1.75085e+10 0.000133381
0.347291 1.74997e+10 0.000137388
0.347468 1.74908e+10 0.000141341
0.347645 1.7482e+10 0.000145386
0.347822 1.74732e+10 0.000149367
0.347999 1.74643e+10 0.000153437
0.348176 1.74555e+10 0.000157432
0.348353 1.74467e+10 0.000161515
0.34853 1.74379e+10 0.000165513
0.348707 1.74292e+10 0.000169595
0.348884 1.74204e+10 0.00017358
0.349061 1.74116e+10 0.000177648
0.349239 1.74029e+10 0.000181609
0.349416 1.73941e+10 0.00018565
0.349593 1.73854e+10 0.000189572
0.34977 1.73767e+10 0.000193571
0.349947 1.73679e+10 0.000197442
0.350124 1.73592e+10 0.000201386
0.350301 1.73505e+10 0.000205191
0.350478 1.73418e+10 0.000209068
0.350655 1.73332e+10 0.000212794
0.350832 1.73245e+10 0.000216589
0.351009 1.73158e+10 0.000220223
0.351186 1.73072e+10 0.000223924
0.351363 1.72985e+10 0.000227453
0.35154 1.72899e+10 0.000231046
0.351717 1.72812e+10 0.000234458
0.351894 1.72726e+10 0.000237931
0.352072 1.7264e+10 0.000241213
0.352249 1.72554e+10 0.000244555
0.352426 1.72468e+10 0.000247696
0.352603 1.72382e+10 0.000250893
0.35278 1.72296e+10 0.000253882
0.352957 1.72211e+10 0.000256925
0.353134 1.72125e+10 0.00025975
0.353311 1.72039e+10 0.000262628
0.353488 1.71954e+10 0.00026528
0.353665 1.71869e+10 0.000267983
0.353842 1.71783e+10 0.000270452
0.354019 1.71698e+10 0.000272971
0.354196 1.71613e+10 0.000275249
0.354373 1.71528e+10 0.000277574
0.35455 1.71443e+10 0.000279653
0.354728 1.71358e+10 0.000281778
0.354905 1.71274e+10 0.00028365
0.355082 1.71189e+10 0.000285567
0.355259 1.71104e+10 0.000287227
0.355436 1.7102e+10 0.00028893
0.355613 1.70935e+10 0.000290371
0.35579 1.70851e+10 0.000291855
0.355967 1.70767e+10 0.000293073
0.356144 1.70682e+10 0.000294333
0.356321 1.70598e+10 0.000295324
0.356498 1.70514e+10 0.000296356
0.356675 1.7043e+10 0.000297117
0.356852 1.70347e+10 0.00029792
0.357029 1.70263e+10 0.000298448
0.357206 1.70179e+10 0.000299019
0.357383 1.70096e+10 0.000299314
0.357561 1.70012e+10 0.000299652
0.357738 1.69929e+10 0.000299714
0.357915 1.69845e+10 0.000299818
0.358092 1.69762e+10 0.000299647
0.358269 1.69679e+10 0.000299518
0.358446 1.69596e+10 0.000299116
0.358623 1.69513e+10 0.000298756
0.3588 1.6943e+10 0.000298125
0.358977 1.69347e+10 0.000297537
0.359154 1.69264e+10 0.000296679
0.359331 1.69181e+10 0.000295867
0.359508 1.69099e+10 0.000294787
0.359685 1.69016e+10 0.000293753
0.359862 1.68934e+10 0.000292455
0.360039 1.68852e+10 0.000291206
0.360217 1.68769e+10 0.000289696
0.360394 1.68687e+10 0.000288236
0.360571 1.68605e+10 0.000286521
0.360748 1.68523e+10 0.000284857
0.360925 1.68441e+10 0.000282943
0.361102 1.68359e+10 0.000281081
0.361279 1.68277e+10 0.000278976
0.361456 1.68195e+10 0.000276925
0.361633 1.68114e+10 0.000274636
0.36181 1.68032e+10 0.000272404
0.361987 1.67951e+10 0.000269941
0.362164 1.67869e+10 0.000267537
0.362341 1.67788e+10 0.000264908
0.362518 1.67707e+10 0.000262341
0.362695 1.67626e+10 0.000259557
0.362872 1.67545e+10 0.000256835
0.36305 1.67464e+10 0.000253906
0.363227 1.67383e+10 0.000251042
0.363404 1.67302e+10 0.000247977
0.363581 1.67221e+10 0.00024498
0.363758 1.6714e+10 0.000241791
0.363935 1.6706e+10 0.000238672
0.364112 1.66979e+10 0.00023537
0.364289 1.66899e+10 0.000232139
0.364466 1.66818e+10 0.000228735
0.364643 1.66738e+10 0.000225405
0.36482 1.66658e+10 0.00022191
0.364997 1.66578e+10 0.000218491
0.365174 1.66498e+10 0.000214918
0.365351 1.66418e+10 0.000211422
0.365528 1.66338e+10 0.000207781
0.365706 1.66258e+10 0.00020422
0.365883 1.66178e+10 0.000200523
0.36606 1.66098e+10 0.000196907
0.366237 1.66019e+10 0.000193166
0.366414 1.65939e+10 0.000189508
0.366591 1.6586e+10 0.000185733
0.366768 1.65781e+10 0.000182044
0.366945 1.65701e+10 0.000178248
0.367122 1.65622e+10 0.000174538
0.367299 1.65543e+10 0.000170732
0.367476 1.65464e+10 0.000167013
0.367653 1.65385e+10 0.000163207
0.36783 1.65306e+10 0.00015949
0.368007 1.65227e+10 0.000155695
0.368184 1.65148e+10 0.00015199
0.368361 1.6507e+10 0.000148216
0.368539 1.64991e+10 0.000144533
0.368716 1.64913e+10 0.00014079
0.368893 1.64834e+10 0.00013714
0.36907 1.64756e+10 0.000133437
0.369247 1.64677e+10 0.000129828
0.369424 1.64599e+10 0.000126176
0.369601 1.64521e+10 0.000122618
0.369778 1.64443e+10 0.000119024
0.369955 1.64365e+10 0.000115524
0.370132 1.64287e+10 0.000111998
0.370309 1.64209e+10 0.000108565
0.370486 1.64131e+10 0.000105113
0.370663 1.64054e+10 0.000101756
0.37084 1.63976e+10 9.8386e-05
0.371017 1.63898e+10 9.51107e-05
0.371195 1.63821e+10 9.18294e-05
0.371372 1.63744e+10 8.86426e-05
0.371549 1.63666e+10 8.54563e-05
0.371726 1.63589e+10 8.2364e-05
0.371903 1.63512e+10 7.92785e-05
0.37208 1.63435e+10 7.62863e-05
0.372257 1.63358e+10 7.33066e-05
0.372434 1.63281e+10 7.04195e-05
0.372611 1.63204e+10 6.75501e-05
0.372788 1.63127e+10 6.47725e-05
0.372965 1.6305e+10 6.20175e-05
0.373142 1.62973e+10 5.93532e-05
0.373319 1.62897e+10 5.67161e-05
0.373496 1.6282e+10 5.41684e-05
0.373673 1.62744e+10 5.1652e-05
0.37385 1.62667e+10 4.92235e-05
0.374028 1.62591e+10 4.68302e-05
0.374205 1.62515e+10 4.45232e-05
0.374382 1.62439e+10 4.22547e-05
0.374559 1.62363e+10 4.00708e-05
0.374736 1.62287e+10 3.79284e-05
0.374913 1.62211e+10 3.58687e-05
0.37509 1.62135e+10 3.3853e-05
0.375267 1.62059e+10 3.19182e-05
0.375444 1.61983e+10 3.00294e-05
0.375621 1.61908e+10 2.82195e-05
0.375798 1.61832e+10 2.64574e-05
0.375975 1.61756e+10 2.47719e-05
0.376152 1.61681e+10 2.31357e-05
0.376329 1.61606e+10 2.15738e-05
0.376506 1.6153e+10 2.00622e-05
